Sensor Model:   CX-1010-CD-BF0.1
Serial Number:  X115419
Data Format:    4      (Log Ohms/Kelvin)
SetPoint Limit: 325.0      (Kelvin)
Temperature coefficient:  1 (Negative)
Number of Breakpoints:   180

No.   Units      Temperature (K)

1	1.51582	308
2	1.5212	302
3	1.52606	297
4	1.53127	291.5
5	1.53663	286
6	1.54212	280.5
7	1.54776	275
8	1.55336	269.5
9	1.55891	264
10	1.56462	258.5
11	1.5705	253
12	1.57655	247.5
13	1.58277	242
14	1.58916	236.5
15	1.59575	231
16	1.60252	225.5
17	1.60949	220
18	1.61601	215
19	1.6227	210
20	1.62957	205
21	1.63662	200
22	1.64387	195
23	1.65132	190
24	1.65898	185
25	1.66685	180
26	1.67494	175
27	1.68327	170
28	1.69184	165
29	1.70066	160
30	1.70974	155
31	1.71909	150
32	1.72776	145.5
33	1.73667	141
34	1.74583	136.5
35	1.75526	132
36	1.76497	127.5
37	1.77497	123
38	1.78527	118.5
39	1.79591	114
40	1.80565	110
41	1.81567	106
42	1.826	102
43	1.83396	99
44	1.84073	96.5
45	1.84764	94
46	1.85469	91.5
47	1.86188	89
48	1.86923	86.5
49	1.87674	84
50	1.88442	81.5
51	1.89228	79
52	1.90032	76.5
53	1.90856	74
54	1.917	71.5
55	1.92566	69
56	1.93276	67
57	1.94001	65
58	1.94742	63
59	1.95501	61
60	1.96278	59
61	1.97074	57
62	1.97892	55
63	1.98731	53
64	1.99594	51
65	2.00482	49
66	2.01305	47.2
67	2.02151	45.4
68	2.03023	43.6
69	2.03923	41.8
70	2.04906	39.9
71	2.05816	38.2
72	2.06759	36.5
73	2.07679	34.9
74	2.08633	33.3
75	2.09625	31.7
76	2.10594	30.2
77	2.11603	28.7
78	2.12659	27.2
79	2.13691	25.8
80	2.14695	24.5
81	2.15748	23.2
82	2.16856	21.9
83	2.17935	20.7
84	2.18784	19.8
85	2.1947	19.1
86	2.20181	18.4
87	2.2092	17.7
88	2.21632	17.05
89	2.22373	16.4
90	2.23144	15.75
91	2.23885	15.15
92	2.24658	14.55
93	2.25465	13.95
94	2.26238	13.4
95	2.27046	12.85
96	2.27893	12.3
97	2.28699	11.8
98	2.29545	11.3
99	2.30433	10.8
100	2.31369	10.3
101	2.32257	9.85
102	2.33193	9.4
103	2.34182	8.95
104	2.35111	8.55
105	2.36093	8.15
106	2.37133	7.75
107	2.3824	7.35
108	2.39421	6.95
109	2.40524	6.6
110	2.417	6.25
111	2.43034	5.88
112	2.44353	5.54
113	2.4569	5.22
114	2.47038	4.92
115	2.48493	4.62
116	2.50071	4.32
117	2.51673	4.04
118	2.52969	3.83
119	2.54153	3.65
120	2.55414	3.47
121	2.56761	3.29
122	2.58123	3.12
123	2.59584	2.95
124	2.61061	2.79
125	2.62652	2.63
126	2.64262	2.48
127	2.66004	2.33
128	2.67769	2.19
129	2.69689	2.05
130	2.71636	1.92
131	2.73767	1.79
132	2.75928	1.67
133	2.78104	1.56
134	2.80502	1.45
135	2.83167	1.34
136	2.8587	1.24
137	2.87646	1.18
138	2.89065	1.135
139	2.90567	1.09
140	2.92162	1.045
141	2.9386	1
142	2.95467	0.96
143	2.97177	0.92
144	2.99001	0.88
145	3.00954	0.84
146	3.03054	0.8
147	3.05027	0.765
148	3.07145	0.73
149	3.09427	0.695
150	3.11896	0.66
151	3.14581	0.625
152	3.17081	0.595
153	3.19793	0.565
154	3.22749	0.535
155	3.25989	0.505
156	3.28696	0.482
157	3.31231	0.462
158	3.33957	0.442
159	3.36898	0.422
160	3.39754	0.404
161	3.43919	0.38
162	3.47751	0.36
163	3.51969	0.34
164	3.56642	0.32
165	3.61856	0.3
166	3.67721	0.28
167	3.74379	0.26
168	3.82019	0.24
169	3.90893	0.22
170	4.01355	0.2
171	4.08594	0.188
172	4.16725	0.176
173	4.25934	0.164
174	4.36464	0.152
175	4.48636	0.14
176	4.7239	0.121
177	4.82962	0.114
178	4.93021	0.108
179	5.06137	0.101
180	5.08148	0.1
