Sensor Model:   CX-1010-CD-BF0.1
Serial Number:  X116777
Data Format:    4      (Log Ohms/Kelvin)
SetPoint Limit: 325.0      (Kelvin)
Temperature coefficient:  1 (Negative)
Number of Breakpoints:   180

No.   Units      Temperature (K)

1	1.56796	308
2	1.5726	302
3	1.57666	297
4	1.58119	291.5
5	1.58564	286
6	1.59039	280.5
7	1.59509	275
8	1.5999	269.5
9	1.60448	264
10	1.60919	258.5
11	1.61404	253
12	1.61904	247.5
13	1.62418	242
14	1.62947	236.5
15	1.63492	231
16	1.64054	225.5
17	1.64632	220
18	1.65172	215
19	1.65727	210
20	1.66298	205
21	1.66884	200
22	1.67486	195
23	1.68106	190
24	1.68742	185
25	1.69397	180
26	1.70071	175
27	1.70765	170
28	1.71478	165
29	1.72213	160
30	1.7297	155
31	1.7375	150
32	1.74473	145.5
33	1.75216	141
34	1.75981	136.5
35	1.76767	132
36	1.77578	127.5
37	1.78413	123
38	1.79273	118.5
39	1.80161	114
40	1.80975	110
41	1.81813	106
42	1.82676	102
43	1.83341	99
44	1.83907	96.5
45	1.84484	94
46	1.85074	91.5
47	1.85675	89
48	1.8629	86.5
49	1.86919	84
50	1.87561	81.5
51	1.88219	79
52	1.88892	76.5
53	1.89581	74
54	1.90289	71.5
55	1.91014	69
56	1.91609	67
57	1.92217	65
58	1.92839	63
59	1.93476	61
60	1.94128	59
61	1.94798	57
62	1.95485	55
63	1.96191	53
64	1.96917	51
65	1.97665	49
66	1.98359	47.2
67	1.99074	45.4
68	1.99811	43.6
69	2.00572	41.8
70	2.01405	39.9
71	2.02177	38.2
72	2.02978	36.5
73	2.03761	34.9
74	2.04574	33.3
75	2.05422	31.7
76	2.06251	30.2
77	2.07118	28.7
78	2.08026	27.2
79	2.08916	25.8
80	2.09784	24.5
81	2.10697	23.2
82	2.11661	21.9
83	2.12603	20.7
84	2.13346	19.8
85	2.13948	19.1
86	2.14574	18.4
87	2.15225	17.7
88	2.15854	17.05
89	2.16509	16.4
90	2.17194	15.75
91	2.17853	15.15
92	2.18542	14.55
93	2.19264	13.95
94	2.19957	13.4
95	2.20683	12.85
96	2.21446	12.3
97	2.22174	11.8
98	2.22939	11.3
99	2.23745	10.8
100	2.24597	10.3
101	2.25406	9.85
102	2.26261	9.4
103	2.27168	8.95
104	2.28021	8.55
105	2.28924	8.15
106	2.29884	7.75
107	2.30906	7.35
108	2.32	6.95
109	2.33023	6.6
110	2.34117	6.25
111	2.35359	5.88
112	2.3659	5.54
113	2.37838	5.22
114	2.391	4.92
115	2.40462	4.62
116	2.41941	4.32
117	2.43443	4.04
118	2.4466	3.83
119	2.45771	3.65
120	2.46955	3.47
121	2.48219	3.29
122	2.49497	3.12
123	2.50866	2.95
124	2.5225	2.79
125	2.53739	2.63
126	2.55245	2.48
127	2.56872	2.33
128	2.58516	2.19
129	2.60303	2.05
130	2.62109	1.92
131	2.64081	1.79
132	2.66075	1.67
133	2.68076	1.56
134	2.70272	1.45
135	2.72702	1.34
136	2.75156	1.24
137	2.76761	1.18
138	2.78039	1.135
139	2.79389	1.09
140	2.80818	1.045
141	2.82336	1
142	2.83766	0.96
143	2.85284	0.92
144	2.86898	0.88
145	2.88619	0.84
146	2.90463	0.8
147	2.9219	0.765
148	2.94036	0.73
149	2.96017	0.695
150	2.98152	0.66
151	3.00464	0.625
152	3.02608	0.595
153	3.04924	0.565
154	3.07437	0.535
155	3.1018	0.505
156	3.12463	0.482
157	3.14593	0.462
158	3.16876	0.442
159	3.19331	0.422
160	3.21708	0.404
161	3.25162	0.38
162	3.28327	0.36
163	3.31798	0.34
164	3.3563	0.32
165	3.39891	0.3
166	3.44666	0.28
167	3.50066	0.26
168	3.56241	0.24
169	3.63388	0.22
170	3.71783	0.2
171	3.77577	0.188
172	3.84073	0.176
173	3.91417	0.164
174	3.99799	0.152
175	4.09474	0.14
176	4.28321	0.121
177	4.36698	0.114
178	4.44665	0.108
179	4.5505	0.101
180	4.56642	0.1
